102

   12.851100    0.233200
   25.311000    1.174600
   28.123800    0.086300
   50.444000    0.478700
   60.651900    4.848700
   72.187600    4.003100
  104.404600    1.490600
  127.928800    2.024600
  142.134900    0.579500
  160.927600    0.786300
  173.066600    0.250600
  175.295000    0.034000
  213.359200    4.028300
  226.898600    4.282300
  238.304400    4.119400
  254.616200    1.693400
  265.907700    2.437600
  277.428700    8.659800
  327.794300    5.097000
  334.219100    0.639300
  354.579700    0.138900
  363.261500    3.068300
  381.439100   12.971000
  404.704900   19.664000
  422.268900    1.307400
  440.532600   56.975500
  454.404400    8.063900
  465.233500   31.462700
  494.280900  199.861400
  508.669600   71.278900
  522.246900   47.680800
  542.023400   25.001300
  566.087100    7.554800
  595.001300    6.919500
  600.221900    5.401500
  637.531700    1.005100
  664.145800    1.937200
  675.683500   34.315400
  701.298700   30.618000
  704.486700    2.766400
  736.320700   61.326300
  742.872700    9.554500
  753.270000   73.141100
  781.292300   14.534100
  803.333900   92.926000
  831.704600   54.542500
  845.935300    4.985200
  854.282400   85.226000
  871.916500   16.015300
  883.321900   32.096200
  909.564600   13.290800
  971.721200    0.726700
  980.037800    0.232000
  995.691300    1.559400
 1009.582000   17.089400
 1033.146600  135.597900
 1055.097400    2.423100
 1067.520900   80.444200
 1087.462600  253.383900
 1122.414600  122.376000
 1127.579600   70.871300
 1136.664300   33.566000
 1163.932100  179.550600
 1166.846400   83.608300
 1205.207400  194.584700
 1210.171100  299.274200
 1264.201200   10.423300
 1291.490300  734.487500
 1312.291100  475.327500
 1326.774900   68.912900
 1340.782300  128.455800
 1354.157600  203.247900
 1364.858000   10.629000
 1377.687900   43.223700
 1414.592400   24.987300
 1440.959400   81.803900
 1446.664000   13.368400
 1467.745500  307.253700
 1489.180200   28.329100
 1492.087900    6.871100
 1501.678300  247.340800
 1539.205800   89.929900
 1563.858500  879.384700
 1628.615600   74.532500
 1642.885300  561.380100
 1645.466200  394.263700
 1663.553400   28.952400
 1665.000100   83.940000
 1688.168400  423.346100
 1784.804200  735.879500
 3047.800900   25.142300
 3112.469700   14.629200
 3163.294900   10.120100
 3224.607800    3.874300
 3235.321600    3.504400
 3245.973100    3.585700
 3246.354200    3.663900
 3249.071100    2.040300
 3253.681000    0.879900
 3263.017700    0.999100
 3576.332000   96.240000
 3682.469700  138.917500
